# # Flare and landing file
# # 0       : time
# # 1,2,3   : body rates: p  q  r
# # 4,5,6   : attitude: angles phi, theta, psi
# # 7,8,9   : position: altitude, x, y
# # 10      : lateral stick
# # 11      : fwd stick
# # 12      : rudder
1.000000e-02 -1.221229e-03 1.153518e-04 -3.567621e-05 -6.112849e-06 2.460089e-02 -1.786580e-07 9.384322e+01 -1.345835e+03 -7.020166e-07 1.573281e-03 1.118498e-02 0.000000e+00
2.000000e-02 -2.471000e-03 2.099516e-04 -5.720815e-05 -2.460123e-05 2.460257e-02 -6.464314e-07 9.380802e+01 -1.345332e+03 -2.932288e-06 1.521650e-03 1.128719e-02 0.000000e+00
3.000000e-02 -3.682032e-03 2.569621e-04 -6.033894e-05 -5.539942e-05 2.460495e-02 -1.237830e-06 9.377280e+01 -1.344829e+03 -6.946433e-06 1.484776e-03 1.136559e-02 0.000000e+00
4.000000e-02 -4.813750e-03 2.449592e-04 -4.485119e-05 -9.791077e-05 2.460750e-02 -1.767428e-06 9.373755e+01 -1.344326e+03 -1.301820e-05 1.459359e-03 1.141881e-02 0.000000e+00
5.000000e-02 -5.851025e-03 1.655827e-04 -1.061075e-05 -1.512607e-04 2.460958e-02 -2.048082e-06 9.370229e+01 -1.343824e+03 -2.142614e-05 1.447901e-03 1.142622e-02 0.000000e+00
6.000000e-02 -6.780821e-03 9.757687e-06 4.060572e-05 -2.144346e-04 2.461049e-02 -1.900839e-06 9.366700e+01 -1.343321e+03 -3.244729e-05 1.446595e-03 1.137673e-02 0.000000e+00
7.000000e-02 -7.604823e-03 -1.878565e-04 1.049556e-04 -2.863619e-04 2.460962e-02 -1.174745e-06 9.363170e+01 -1.342818e+03 -4.635220e-05 1.451494e-03 1.129324e-02 0.000000e+00
8.000000e-02 -8.348619e-03 -4.004948e-04 1.784336e-04 -3.661097e-04 2.460670e-02 2.419009e-07 9.359637e+01 -1.342315e+03 -6.340592e-05 1.456834e-03 1.122622e-02 0.000000e+00
9.000000e-02 -9.047032e-03 -6.221706e-04 2.575901e-04 -4.530486e-04 2.460161e-02 2.423461e-06 9.356103e+01 -1.341812e+03 -8.385366e-05 1.464362e-03 1.117224e-02 0.000000e+00
1.000000e-01 -9.716460e-03 -8.589469e-04 3.407811e-04 -5.468063e-04 2.459422e-02 5.418861e-06 9.352567e+01 -1.341309e+03 -1.079029e-04 1.475831e-03 1.110235e-02 0.000000e+00
1.100000e-01 -1.034538e-02 -1.115882e-03 4.298859e-04 -6.470345e-04 2.458436e-02 9.278388e-06 9.349030e+01 -1.340806e+03 -1.357281e-04 1.481833e-03 1.103786e-02 0.000000e+00
1.200000e-01 -1.091897e-02 -1.392255e-03 5.276118e-04 -7.532518e-04 2.457183e-02 1.407548e-05 9.345491e+01 -1.340303e+03 -1.674918e-04 1.490733e-03 1.097921e-02 0.000000e+00
1.300000e-01 -1.143123e-02 -1.688941e-03 6.360063e-04 -8.648723e-04 2.455644e-02 1.990748e-05 9.341950e+01 -1.339801e+03 -2.033675e-04 1.504436e-03 1.092131e-02 0.000000e+00
1.400000e-01 -1.188433e-02 -2.022663e-03 7.558311e-04 -9.812907e-04 2.453789e-02 2.688593e-05 9.338408e+01 -1.339298e+03 -2.435477e-04 1.529620e-03 1.085726e-02 0.000000e+00
1.500000e-01 -1.226894e-02 -2.387199e-03 8.888256e-04 -1.101866e-03 2.451586e-02 3.513506e-05 9.334864e+01 -1.338795e+03 -2.882334e-04 1.572850e-03 1.077941e-02 0.000000e+00
1.600000e-01 -1.257573e-02 -2.762979e-03 1.036953e-03 -1.225862e-03 2.449012e-02 4.479765e-05 9.331319e+01 -1.338292e+03 -3.376183e-04 1.641151e-03 1.067921e-02 0.000000e+00
1.700000e-01 -1.279817e-02 -3.149465e-03 1.200359e-03 -1.352465e-03 2.446057e-02 5.602700e-05 9.327773e+01 -1.337789e+03 -3.918715e-04 1.712867e-03 1.055888e-02 0.000000e+00
1.800000e-01 -1.294734e-02 -3.535360e-03 1.376418e-03 -1.480882e-03 2.442717e-02 6.896393e-05 9.324225e+01 -1.337286e+03 -4.511239e-04 1.765648e-03 1.045071e-02 0.000000e+00
1.900000e-01 -1.303287e-02 -3.902610e-03 1.563273e-03 -1.610428e-03 2.439000e-02 8.372655e-05 9.320675e+01 -1.336783e+03 -5.154792e-04 1.811282e-03 1.035195e-02 0.000000e+00
2.000000e-01 -1.307959e-02 -4.230871e-03 1.756712e-03 -1.740587e-03 2.434936e-02 1.004022e-04 9.317124e+01 -1.336281e+03 -5.850385e-04 1.859299e-03 1.025939e-02 0.000000e+00
2.100000e-01 -1.311627e-02 -4.508606e-03 1.952248e-03 -1.871116e-03 2.430569e-02 1.190345e-04 9.313572e+01 -1.335778e+03 -6.599121e-04 1.913768e-03 1.017967e-02 0.000000e+00
2.200000e-01 -1.317647e-02 -4.765336e-03 2.144313e-03 -2.002083e-03 2.425936e-02 1.396163e-04 9.310018e+01 -1.335275e+03 -7.402115e-04 1.965866e-03 1.012465e-02 0.000000e+00
2.300000e-01 -1.330102e-02 -5.018441e-03 2.326549e-03 -2.133929e-03 2.421048e-02 1.620815e-04 9.306462e+01 -1.334772e+03 -8.260490e-04 2.024048e-03 1.008413e-02 0.000000e+00
2.400000e-01 -1.352014e-02 -5.260320e-03 2.495327e-03 -2.267454e-03 2.415914e-02 1.863140e-04 9.302906e+01 -1.334269e+03 -9.175434e-04 2.084964e-03 1.004959e-02 0.000000e+00
2.500000e-01 -1.385226e-02 -5.498855e-03 2.649567e-03 -2.403698e-03 2.410540e-02 2.121743e-04 9.299348e+01 -1.333766e+03 -1.014821e-03 2.152576e-03 1.002564e-02 0.000000e+00
2.600000e-01 -1.431332e-02 -5.758161e-03 2.787669e-03 -2.543877e-03 2.404918e-02 2.395099e-04 9.295788e+01 -1.333263e+03 -1.118012e-03 2.232834e-03 1.000794e-02 0.000000e+00
2.700000e-01 -1.492026e-02 -6.048414e-03 2.908347e-03 -2.689369e-03 2.399022e-02 2.681545e-04 9.292227e+01 -1.332761e+03 -1.227247e-03 2.314746e-03 9.993521e-03 0.000000e+00
2.800000e-01 -1.567142e-02 -6.366238e-03 3.012317e-03 -2.841628e-03 2.392822e-02 2.979393e-04 9.288665e+01 -1.332258e+03 -1.342659e-03 2.399952e-03 9.991741e-03 0.000000e+00
2.900000e-01 -1.654337e-02 -6.700903e-03 3.104189e-03 -3.001984e-03 2.386297e-02 3.287221e-04 9.285102e+01 -1.331755e+03 -1.464382e-03 2.482075e-03 1.001478e-02 0.000000e+00
3.000000e-01 -1.751088e-02 -7.040351e-03 3.190456e-03 -3.171521e-03 2.379436e-02 3.604166e-04 9.281538e+01 -1.331252e+03 -1.592573e-03 2.558199e-03 1.007444e-02 0.000000e+00
3.100000e-01 -1.854893e-02 -7.376937e-03 3.278116e-03 -3.351068e-03 2.372237e-02 3.930035e-04 9.277972e+01 -1.330749e+03 -1.727403e-03 2.626173e-03 1.014115e-02 0.000000e+00
3.200000e-01 -1.965085e-02 -7.701293e-03 3.371984e-03 -3.541297e-03 2.364709e-02 4.265227e-04 9.274405e+01 -1.330246e+03 -1.869043e-03 2.692031e-03 1.020668e-02 0.000000e+00
3.300000e-01 -2.081212e-02 -7.993926e-03 3.474694e-03 -3.742822e-03 2.356873e-02 4.610508e-04 9.270836e+01 -1.329744e+03 -2.017649e-03 2.748911e-03 1.028589e-02 0.000000e+00
3.400000e-01 -2.201706e-02 -8.262297e-03 3.587957e-03 -3.956157e-03 2.348759e-02 4.966859e-04 9.267266e+01 -1.329241e+03 -2.173349e-03 2.800587e-03 1.038084e-02 0.000000e+00
3.500000e-01 -2.323838e-02 -8.514044e-03 3.712413e-03 -4.181598e-03 2.340385e-02 5.335382e-04 9.263695e+01 -1.328738e+03 -2.336245e-03 2.847787e-03 1.048893e-02 0.000000e+00
3.600000e-01 -2.445415e-02 -8.739389e-03 3.847224e-03 -4.419198e-03 2.331774e-02 5.717167e-04 9.260122e+01 -1.328235e+03 -2.506416e-03 2.895385e-03 1.061849e-02 0.000000e+00
3.700000e-01 -2.564006e-02 -8.949840e-03 3.992662e-03 -4.668777e-03 2.322947e-02 6.113277e-04 9.256548e+01 -1.327732e+03 -2.683927e-03 2.938695e-03 1.077813e-02 0.000000e+00
3.800000e-01 -2.677570e-02 -9.150006e-03 4.149191e-03 -4.929931e-03 2.313917e-02 6.524815e-04 9.252972e+01 -1.327229e+03 -2.868842e-03 2.986169e-03 1.096365e-02 0.000000e+00
3.900000e-01 -2.784918e-02 -9.351657e-03 4.315991e-03 -5.202095e-03 2.304688e-02 6.952869e-04 9.249395e+01 -1.326726e+03 -3.061221e-03 3.037705e-03 1.113352e-02 0.000000e+00
4.000000e-01 -2.883350e-02 -9.560211e-03 4.492960e-03 -5.484511e-03 2.295255e-02 7.398483e-04 9.245817e+01 -1.326224e+03 -3.261118e-03 3.113625e-03 1.128593e-02 0.000000e+00
4.100000e-01 -2.969574e-02 -9.774795e-03 4.679060e-03 -5.776120e-03 2.285614e-02 7.862649e-04 9.242238e+01 -1.325721e+03 -3.468571e-03 3.199548e-03 1.143836e-02 0.000000e+00
4.200000e-01 -3.040885e-02 -9.997197e-03 4.872020e-03 -6.075563e-03 2.275756e-02 8.346191e-04 9.238657e+01 -1.325218e+03 -3.683613e-03 3.310391e-03 1.159033e-02 0.000000e+00
4.300000e-01 -3.097248e-02 -1.023131e-02 5.069667e-03 -6.381345e-03 2.265673e-02 8.849715e-04 9.235075e+01 -1.324715e+03 -3.906276e-03 3.442420e-03 1.173962e-02 0.000000e+00
4.400000e-01 -3.140530e-02 -1.048153e-02 5.268282e-03 -6.692066e-03 2.255351e-02 9.373532e-04 9.231492e+01 -1.324212e+03 -4.136588e-03 3.601228e-03 1.188511e-02 0.000000e+00
4.500000e-01 -3.172440e-02 -1.074813e-02 5.463472e-03 -7.006503e-03 2.244773e-02 9.917548e-04 9.227908e+01 -1.323709e+03 -4.374562e-03 3.785244e-03 1.202676e-02 0.000000e+00
4.600000e-01 -3.193038e-02 -1.104655e-02 5.653712e-03 -7.323523e-03 2.233915e-02 1.048138e-03 9.224323e+01 -1.323207e+03 -4.620187e-03 3.996094e-03 1.215591e-02 0.000000e+00
4.700000e-01 -3.203601e-02 -1.136941e-02 5.837483e-03 -7.642061e-03 2.222751e-02 1.106450e-03 9.220737e+01 -1.322704e+03 -4.873447e-03 4.224183e-03 1.226577e-02 0.000000e+00
4.800000e-01 -3.208448e-02 -1.168666e-02 6.011560e-03 -7.961332e-03 2.211269e-02 1.166612e-03 9.217150e+01 -1.322201e+03 -5.134346e-03 4.467896e-03 1.235338e-02 0.000000e+00
4.900000e-01 -3.210657e-02 -1.198738e-02 6.172225e-03 -8.280923e-03 2.199482e-02 1.228510e-03 9.213561e+01 -1.321698e+03 -5.402916e-03 4.719598e-03 1.241397e-02 0.000000e+00
5.000000e-01 -3.211586e-02 -1.228632e-02 6.316309e-03 -8.600641e-03 2.187398e-02 1.291996e-03 9.209972e+01 -1.321195e+03 -5.679217e-03 4.970517e-03 1.244833e-02 0.000000e+00
5.100000e-01 -3.212105e-02 -1.259138e-02 6.440185e-03 -8.920408e-03 2.175015e-02 1.356886e-03 9.206381e+01 -1.320692e+03 -5.963318e-03 5.208095e-03 1.245072e-02 0.000000e+00
5.200000e-01 -3.212696e-02 -1.292230e-02 6.540754e-03 -9.240211e-03 2.162318e-02 1.422967e-03 9.202789e+01 -1.320190e+03 -6.255284e-03 5.430394e-03 1.242012e-02 0.000000e+00
5.300000e-01 -3.213500e-02 -1.328926e-02 6.616936e-03 -9.560072e-03 2.149274e-02 1.490005e-03 9.199195e+01 -1.319687e+03 -6.555158e-03 5.632157e-03 1.235618e-02 0.000000e+00
5.400000e-01 -3.212589e-02 -1.368459e-02 6.671480e-03 -9.879920e-03 2.135852e-02 1.557776e-03 9.195601e+01 -1.319184e+03 -6.862968e-03 5.811266e-03 1.229487e-02 0.000000e+00
5.500000e-01 -3.209411e-02 -1.408939e-02 6.703357e-03 -1.019956e-02 2.122032e-02 1.626061e-03 9.192004e+01 -1.318681e+03 -7.178707e-03 5.953497e-03 1.224486e-02 0.000000e+00
5.600000e-01 -3.205042e-02 -1.448293e-02 6.708964e-03 -1.051883e-02 2.107816e-02 1.694619e-03 9.188407e+01 -1.318178e+03 -7.502327e-03 6.057375e-03 1.218601e-02 0.000000e+00
5.700000e-01 -3.200657e-02 -1.484467e-02 6.687973e-03 -1.083767e-02 2.093223e-02 1.763185e-03 9.184807e+01 -1.317675e+03 -7.833731e-03 6.114911e-03 1.211920e-02 0.000000e+00
5.800000e-01 -3.197326e-02 -1.516490e-02 6.640745e-03 -1.115613e-02 2.078292e-02 1.831493e-03 9.181206e+01 -1.317173e+03 -8.172794e-03 6.114293e-03 1.204657e-02 0.000000e+00
5.900000e-01 -3.196180e-02 -1.545457e-02 6.568267e-03 -1.147440e-02 2.063058e-02 1.899284e-03 9.177603e+01 -1.316670e+03 -8.519382e-03 6.040728e-03 1.196872e-02 0.000000e+00
6.000000e-01 -3.198398e-02 -1.570887e-02 6.471082e-03 -1.179275e-02 2.047552e-02 1.966306e-03 9.173998e+01 -1.316167e+03 -8.873349e-03 5.912804e-03 1.187634e-02 0.000000e+00
6.100000e-01 -3.205239e-02 -1.591247e-02 6.348192e-03 -1.211158e-02 2.031819e-02 2.032304e-03 9.170391e+01 -1.315664e+03 -9.234543e-03 5.763388e-03 1.176080e-02 0.000000e+00
6.200000e-01 -3.217624e-02 -1.607251e-02 6.199610e-03 -1.243142e-02 2.015904e-02 2.097016e-03 9.166782e+01 -1.315161e+03 -9.602818e-03 5.586146e-03 1.159978e-02 0.000000e+00
6.300000e-01 -3.234452e-02 -1.619955e-02 6.028331e-03 -1.275275e-02 1.999845e-02 2.160196e-03 9.163170e+01 -1.314658e+03 -9.978042e-03 5.379856e-03 1.142581e-02 0.000000e+00
6.400000e-01 -3.254570e-02 -1.628944e-02 5.837051e-03 -1.307599e-02 1.983678e-02 2.221628e-03 9.159557e+01 -1.314155e+03 -1.036009e-02 5.122246e-03 1.124524e-02 0.000000e+00
6.500000e-01 -3.277425e-02 -1.637497e-02 5.628214e-03 -1.340142e-02 1.967423e-02 2.281123e-03 9.155942e+01 -1.313653e+03 -1.074887e-02 4.844648e-03 1.104143e-02 0.000000e+00
6.600000e-01 -3.302884e-02 -1.649016e-02 5.403521e-03 -1.372932e-02 1.951066e-02 2.338516e-03 9.152325e+01 -1.313150e+03 -1.114431e-02 4.594509e-03 1.080849e-02 0.000000e+00
6.700000e-01 -3.331422e-02 -1.662806e-02 5.162005e-03 -1.405997e-02 1.934581e-02 2.393648e-03 9.148706e+01 -1.312647e+03 -1.154640e-02 4.328435e-03 1.056206e-02 0.000000e+00
6.800000e-01 -3.362792e-02 -1.676519e-02 4.902266e-03 -1.439368e-02 1.917957e-02 2.446348e-03 9.145084e+01 -1.312144e+03 -1.195519e-02 4.076891e-03 1.031736e-02 0.000000e+00
6.900000e-01 -3.394605e-02 -1.690535e-02 4.624373e-03 -1.473061e-02 1.901192e-02 2.496434e-03 9.141461e+01 -1.311641e+03 -1.237074e-02 3.822742e-03 1.007670e-02 0.000000e+00
7.000000e-01 -3.421414e-02 -1.705828e-02 4.333556e-03 -1.507053e-02 1.884277e-02 2.543754e-03 9.137836e+01 -1.311138e+03 -1.279313e-02 3.595477e-03 9.850311e-03 0.000000e+00
7.100000e-01 -3.439372e-02 -1.721558e-02 4.035447e-03 -1.541275e-02 1.867205e-02 2.588211e-03 9.134209e+01 -1.310636e+03 -1.322248e-02 3.381735e-03 9.645076e-03 0.000000e+00
7.200000e-01 -3.447592e-02 -1.737693e-02 3.732791e-03 -1.575634e-02 1.849970e-02 2.629747e-03 9.130579e+01 -1.310133e+03 -1.365899e-02 3.204639e-03 9.457645e-03 0.000000e+00
7.300000e-01 -3.447525e-02 -1.752066e-02 3.426609e-03 -1.610039e-02 1.832580e-02 2.668322e-03 9.126947e+01 -1.309630e+03 -1.410289e-02 3.055345e-03 9.281613e-03 0.000000e+00
7.400000e-01 -3.440543e-02 -1.763188e-02 3.117791e-03 -1.644415e-02 1.815058e-02 2.703903e-03 9.123313e+01 -1.309127e+03 -1.455445e-02 2.946224e-03 9.110147e-03 0.000000e+00
7.500000e-01 -3.427235e-02 -1.770800e-02 2.807871e-03 -1.678696e-02 1.797439e-02 2.736466e-03 9.119676e+01 -1.308624e+03 -1.501401e-02 2.867864e-03 8.940021e-03 0.000000e+00
7.600000e-01 -3.406947e-02 -1.775948e-02 2.498715e-03 -1.712814e-02 1.779751e-02 2.766004e-03 9.116037e+01 -1.308121e+03 -1.548189e-02 2.827671e-03 8.763375e-03 0.000000e+00
7.700000e-01 -3.377250e-02 -1.780110e-02 2.194550e-03 -1.746688e-02 1.762013e-02 2.792544e-03 9.112396e+01 -1.307618e+03 -1.595847e-02 2.814289e-03 8.571092e-03 0.000000e+00
7.800000e-01 -3.336792e-02 -1.783049e-02 1.899896e-03 -1.780217e-02 1.744236e-02 2.816156e-03 9.108752e+01 -1.307116e+03 -1.644413e-02 2.847150e-03 8.351875e-03 0.000000e+00
7.900000e-01 -3.286628e-02 -1.784080e-02 1.617156e-03 -1.813297e-02 1.726433e-02 2.836944e-03 9.105105e+01 -1.306613e+03 -1.693926e-02 2.920266e-03 8.105127e-03 0.000000e+00
8.000000e-01 -3.228600e-02 -1.784993e-02 1.347482e-03 -1.845841e-02 1.708617e-02 2.855030e-03 9.101456e+01 -1.306110e+03 -1.744422e-02 3.009135e-03 7.829209e-03 0.000000e+00
8.100000e-01 -3.165770e-02 -1.787484e-02 1.090329e-03 -1.877786e-02 1.690780e-02 2.870544e-03 9.097804e+01 -1.305607e+03 -1.795942e-02 3.102532e-03 7.534391e-03 0.000000e+00
8.200000e-01 -3.103162e-02 -1.790800e-02 8.430367e-04 -1.909107e-02 1.672909e-02 2.883598e-03 9.094149e+01 -1.305104e+03 -1.848524e-02 3.204638e-03 7.213701e-03 0.000000e+00
8.300000e-01 -3.045116e-02 -1.792080e-02 6.021519e-04 -1.939829e-02 1.655010e-02 2.894270e-03 9.090491e+01 -1.304601e+03 -1.902210e-02 3.306796e-03 6.867653e-03 0.000000e+00
8.400000e-01 -2.993699e-02 -1.788501e-02 3.671310e-04 -1.970008e-02 1.637119e-02 2.902616e-03 9.086831e+01 -1.304098e+03 -1.957045e-02 3.412790e-03 6.496861e-03 0.000000e+00
8.500000e-01 -2.950644e-02 -1.778323e-02 1.387841e-04 -1.999718e-02 1.619292e-02 2.908685e-03 9.083168e+01 -1.303596e+03 -2.013077e-02 3.512027e-03 6.107089e-03 0.000000e+00
8.600000e-01 -2.918291e-02 -1.763493e-02 -8.324505e-05 -2.029055e-02 1.601586e-02 2.912529e-03 9.079501e+01 -1.303093e+03 -2.070352e-02 3.613651e-03 5.704145e-03 0.000000e+00
8.700000e-01 -2.897285e-02 -1.745477e-02 -2.975913e-04 -2.058129e-02 1.584040e-02 2.914209e-03 9.075832e+01 -1.302590e+03 -2.128921e-02 3.710783e-03 5.297209e-03 0.000000e+00
8.800000e-01 -2.888028e-02 -1.724955e-02 -5.029405e-04 -2.087056e-02 1.566682e-02 2.913802e-03 9.072160e+01 -1.302087e+03 -2.188831e-02 3.792464e-03 4.882692e-03 0.000000e+00
8.900000e-01 -2.889589e-02 -1.702822e-02 -6.972447e-04 -2.115947e-02 1.549534e-02 2.911401e-03 9.068485e+01 -1.301584e+03 -2.250130e-02 3.850380e-03 4.465512e-03 0.000000e+00
9.000000e-01 -2.901273e-02 -1.680040e-02 -8.812036e-04 -2.144907e-02 1.532605e-02 2.907111e-03 9.064808e+01 -1.301081e+03 -2.312861e-02 3.892990e-03 4.043294e-03 0.000000e+00
9.100000e-01 -2.923500e-02 -1.657120e-02 -1.058615e-03 -2.174040e-02 1.515901e-02 2.901014e-03 9.061127e+01 -1.300578e+03 -2.377066e-02 3.920741e-03 3.617765e-03 0.000000e+00
9.200000e-01 -2.956710e-02 -1.635683e-02 -1.232924e-03 -2.203453e-02 1.499415e-02 2.893159e-03 9.057444e+01 -1.300075e+03 -2.442786e-02 3.924591e-03 3.195372e-03 0.000000e+00
9.300000e-01 -2.997867e-02 -1.616709e-02 -1.403670e-03 -2.233241e-02 1.483126e-02 2.883582e-03 9.053759e+01 -1.299573e+03 -2.510059e-02 3.918449e-03 2.771854e-03 0.000000e+00
9.400000e-01 -3.042119e-02 -1.601263e-02 -1.569736e-03 -2.263458e-02 1.467006e-02 2.872332e-03 9.050070e+01 -1.299070e+03 -2.578922e-02 3.919197e-03 2.346869e-03 0.000000e+00
9.500000e-01 -3.087504e-02 -1.590425e-02 -1.732566e-03 -2.294125e-02 1.451013e-02 2.859456e-03 9.046379e+01 -1.298567e+03 -2.649412e-02 3.912053e-03 1.941222e-03 0.000000e+00
9.600000e-01 -3.132334e-02 -1.582138e-02 -1.893518e-03 -2.325246e-02 1.435111e-02 2.844989e-03 9.042685e+01 -1.298064e+03 -2.721563e-02 3.893004e-03 1.556412e-03 0.000000e+00
9.700000e-01 -3.176055e-02 -1.573798e-02 -2.055438e-03 -2.356812e-02 1.419288e-02 2.828939e-03 9.038989e+01 -1.297561e+03 -2.795412e-02 3.862112e-03 1.192066e-03 0.000000e+00
9.800000e-01 -3.217007e-02 -1.564136e-02 -2.218526e-03 -2.388802e-02 1.403550e-02 2.811293e-03 9.035289e+01 -1.297058e+03 -2.870995e-02 3.810890e-03 8.457275e-04 0.000000e+00
9.900000e-01 -3.253846e-02 -1.552684e-02 -2.383981e-03 -2.421184e-02 1.387914e-02 2.792029e-03 9.031587e+01 -1.296555e+03 -2.948350e-02 3.763330e-03 5.208305e-04 0.000000e+00
1.000000e+00 -3.286045e-02 -1.540097e-02 -2.551044e-03 -2.453913e-02 1.372393e-02 2.771126e-03 9.027881e+01 -1.296052e+03 -3.027516e-02 3.726506e-03 2.101098e-04 0.000000e+00
1.010000e+00 -3.311878e-02 -1.527178e-02 -2.717260e-03 -2.486934e-02 1.356995e-02 2.748576e-03 9.024172e+01 -1.295549e+03 -3.108534e-02 3.693659e-03 -7.666734e-05 0.000000e+00
1.020000e+00 -3.329922e-02 -1.514710e-02 -2.880549e-03 -2.520176e-02 1.341719e-02 2.724398e-03 9.020459e+01 -1.295046e+03 -3.191442e-02 3.671195e-03 -3.383423e-04 0.000000e+00
1.030000e+00 -3.340460e-02 -1.501784e-02 -3.039619e-03 -2.553563e-02 1.326565e-02 2.698628e-03 9.016743e+01 -1.294543e+03 -3.276274e-02 3.653235e-03 -5.702825e-04 0.000000e+00
1.040000e+00 -3.343825e-02 -1.485297e-02 -3.193166e-03 -2.587021e-02 1.311553e-02 2.671308e-03 9.013023e+01 -1.294040e+03 -3.363064e-02 3.642732e-03 -7.685461e-04 0.000000e+00
1.050000e+00 -3.339536e-02 -1.465198e-02 -3.338565e-03 -2.620475e-02 1.296720e-02 2.642497e-03 9.009300e+01 -1.293538e+03 -3.451844e-02 3.628924e-03 -9.249506e-04 0.000000e+00
1.060000e+00 -3.327310e-02 -1.442955e-02 -3.472512e-03 -2.653848e-02 1.282093e-02 2.612284e-03 9.005572e+01 -1.293035e+03 -3.542646e-02 3.619860e-03 -1.035502e-03 0.000000e+00
1.070000e+00 -3.308692e-02 -1.418586e-02 -3.594702e-03 -2.687068e-02 1.267696e-02 2.580777e-03 9.001841e+01 -1.292532e+03 -3.635501e-02 3.605834e-03 -1.092707e-03 0.000000e+00
1.080000e+00 -3.284937e-02 -1.390560e-02 -3.706433e-03 -2.720077e-02 1.253556e-02 2.548078e-03 8.998105e+01 -1.292029e+03 -3.730443e-02 3.590352e-03 -1.096671e-03 0.000000e+00
1.090000e+00 -3.257503e-02 -1.356608e-02 -3.811515e-03 -2.752830e-02 1.239721e-02 2.514257e-03 8.994365e+01 -1.291526e+03 -3.827506e-02 3.576121e-03 -1.033929e-03 0.000000e+00
1.100000e+00 -3.228188e-02 -1.316323e-02 -3.915395e-03 -2.785301e-02 1.226255e-02 2.479335e-03 8.990620e+01 -1.291023e+03 -3.926721e-02 3.564078e-03 -9.249909e-04 0.000000e+00
1.110000e+00 -3.199499e-02 -1.274167e-02 -4.023151e-03 -2.817483e-02 1.213196e-02 2.443282e-03 8.986871e+01 -1.290520e+03 -4.028118e-02 3.560560e-03 -8.040398e-04 0.000000e+00
1.120000e+00 -3.176144e-02 -1.232203e-02 -4.141658e-03 -2.849406e-02 1.200553e-02 2.406022e-03 8.983118e+01 -1.290017e+03 -4.131730e-02 3.569965e-03 -6.804249e-04 0.000000e+00
1.130000e+00 -3.164015e-02 -1.188961e-02 -4.280111e-03 -2.881152e-02 1.188332e-02 2.367395e-03 8.979361e+01 -1.289514e+03 -4.237584e-02 3.589095e-03 -5.479268e-04 0.000000e+00
