# # Flare and landing file
# # 0       : time
# # 1,2,3   : body rates: p  q  r
# # 4,5,6   : attitude: angles phi, theta, psi
# # 7,8,9   : position: altitude, x, y
# # 10      : lateral stick
# # 11      : fwd stick
# # 12      : rudder
1.000000e-02 2.060674e-03 9.598825e-05 3.613158e-04 1.037645e-05 4.180654e-02 1.808746e-06 7.922161e+01 -1.515429e+03 -1.495832e-06 2.801275e-05 1.245406e-03 0.000000e+00
2.000000e-02 4.024013e-03 1.762800e-04 7.087841e-04 4.106688e-05 4.180791e-02 7.173037e-06 7.919522e+01 -1.514925e+03 -6.013004e-06 2.982251e-05 1.258820e-03 0.000000e+00
3.000000e-02 5.890015e-03 2.394092e-04 1.038392e-03 9.104323e-05 4.180999e-02 1.592583e-05 7.916881e+01 -1.514422e+03 -1.360532e-05 2.948054e-05 1.266480e-03 0.000000e+00
4.000000e-02 7.640766e-03 2.884670e-04 1.347430e-03 1.592346e-04 4.181263e-02 2.787481e-05 7.914240e+01 -1.513918e+03 -2.430293e-05 3.010711e-05 1.269202e-03 0.000000e+00
5.000000e-02 9.255062e-03 3.409070e-04 1.634514e-03 2.443734e-04 4.181578e-02 4.280714e-05 7.911598e+01 -1.513415e+03 -3.814003e-05 2.882839e-05 1.267628e-03 0.000000e+00
6.000000e-02 1.072635e-02 4.187371e-04 1.900339e-03 3.450527e-04 4.181958e-02 6.050661e-05 7.908956e+01 -1.512911e+03 -5.515348e-05 3.124964e-05 1.260632e-03 0.000000e+00
7.000000e-02 1.205991e-02 5.128066e-04 2.145637e-03 4.598601e-04 4.182424e-02 8.076429e-05 7.906313e+01 -1.512408e+03 -7.535837e-05 3.590091e-05 1.252948e-03 0.000000e+00
8.000000e-02 1.326314e-02 6.029609e-04 2.370557e-03 5.874470e-04 4.182981e-02 1.033757e-04 7.903669e+01 -1.511905e+03 -9.873589e-05 4.248165e-05 1.239214e-03 0.000000e+00
9.000000e-02 1.434401e-02 6.786518e-04 2.575835e-03 7.265417e-04 4.183621e-02 1.281409e-04 7.901025e+01 -1.511401e+03 -1.252421e-04 4.205500e-05 1.226110e-03 0.000000e+00
1.000000e-01 1.531453e-02 7.446590e-04 2.762617e-03 8.759730e-04 4.184330e-02 1.548692e-04 7.898380e+01 -1.510898e+03 -1.548144e-04 4.880115e-05 1.216261e-03 0.000000e+00
1.100000e-01 1.617831e-02 7.979158e-04 2.931890e-03 1.034648e-03 4.185099e-02 1.833805e-04 7.895735e+01 -1.510394e+03 -1.873721e-04 4.836087e-05 1.194518e-03 0.000000e+00
1.200000e-01 1.693192e-02 8.178361e-04 3.083599e-03 1.201476e-03 4.185904e-02 2.134994e-04 7.893090e+01 -1.509891e+03 -2.228197e-04 4.617203e-05 1.177683e-03 0.000000e+00
1.300000e-01 1.756022e-02 8.092148e-04 3.216927e-03 1.375270e-03 4.186714e-02 2.450456e-04 7.890445e+01 -1.509388e+03 -2.610481e-04 4.826103e-05 1.144176e-03 0.000000e+00
1.400000e-01 1.806428e-02 8.071998e-04 3.332442e-03 1.554777e-03 4.187517e-02 2.778380e-04 7.887799e+01 -1.508884e+03 -3.019453e-04 4.356344e-05 1.111860e-03 0.000000e+00
1.500000e-01 1.847350e-02 8.304361e-04 3.434009e-03 1.738892e-03 4.188331e-02 3.117178e-04 7.885153e+01 -1.508381e+03 -3.454035e-04 4.392879e-05 1.071352e-03 0.000000e+00
1.600000e-01 1.882720e-02 8.649686e-04 3.526774e-03 1.926862e-03 4.189172e-02 3.465717e-04 7.882507e+01 -1.507877e+03 -3.913188e-04 3.947590e-05 1.027185e-03 0.000000e+00
1.700000e-01 1.915712e-02 9.056438e-04 3.615140e-03 2.118286e-03 4.190051e-02 3.823341e-04 7.879862e+01 -1.507374e+03 -4.395908e-04 3.487094e-05 9.879667e-04 0.000000e+00
1.800000e-01 1.949076e-02 9.684001e-04 3.702588e-03 2.313066e-03 4.190980e-02 4.189790e-04 7.877216e+01 -1.506870e+03 -4.901148e-04 2.989147e-05 9.477992e-04 0.000000e+00
1.900000e-01 1.984942e-02 1.065168e-03 3.789617e-03 2.511344e-03 4.191987e-02 4.565008e-04 7.874571e+01 -1.506367e+03 -5.427640e-04 2.344555e-05 9.184448e-04 0.000000e+00
2.000000e-01 2.026013e-02 1.164874e-03 3.876907e-03 2.713506e-03 4.193093e-02 4.948996e-04 7.871926e+01 -1.505864e+03 -5.973756e-04 2.227106e-05 8.926934e-04 0.000000e+00
2.100000e-01 2.074495e-02 1.245124e-03 3.967540e-03 2.920185e-03 4.194287e-02 5.341937e-04 7.869281e+01 -1.505360e+03 -6.537556e-04 1.823975e-05 8.796337e-04 0.000000e+00
2.200000e-01 2.129944e-02 1.307223e-03 4.063184e-03 3.132103e-03 4.195551e-02 5.744248e-04 7.866637e+01 -1.504857e+03 -7.116994e-04 2.306149e-05 8.712563e-04 0.000000e+00
2.300000e-01 2.190991e-02 1.356521e-03 4.165379e-03 3.349889e-03 4.196869e-02 6.156509e-04 7.863994e+01 -1.504353e+03 -7.710012e-04 2.248279e-05 8.749853e-04 0.000000e+00
2.400000e-01 2.255798e-02 1.400576e-03 4.274690e-03 3.574014e-03 4.198233e-02 6.579401e-04 7.861351e+01 -1.503850e+03 -8.314528e-04 2.901458e-05 8.848727e-04 0.000000e+00
2.500000e-01 2.323172e-02 1.452594e-03 4.389479e-03 3.804797e-03 4.199644e-02 7.013558e-04 7.858710e+01 -1.503346e+03 -8.928330e-04 2.969873e-05 9.071684e-04 0.000000e+00
2.600000e-01 2.392067e-02 1.532258e-03 4.506857e-03 4.042443e-03 4.201119e-02 7.459394e-04 7.856070e+01 -1.502843e+03 -9.548924e-04 3.346490e-05 9.352548e-04 0.000000e+00
2.700000e-01 2.461956e-02 1.642394e-03 4.623446e-03 4.287079e-03 4.202688e-02 7.917015e-04 7.853430e+01 -1.502340e+03 -1.017339e-03 3.323205e-05 9.681284e-04 0.000000e+00
2.800000e-01 2.531646e-02 1.779295e-03 4.735350e-03 4.538744e-03 4.204378e-02 8.386165e-04 7.850792e+01 -1.501836e+03 -1.079841e-03 3.285162e-05 1.003875e-03 0.000000e+00
2.900000e-01 2.598683e-02 1.920349e-03 4.836013e-03 4.797291e-03 4.206206e-02 8.866060e-04 7.848156e+01 -1.501333e+03 -1.142029e-03 3.201473e-05 1.042366e-03 0.000000e+00
3.000000e-01 2.661374e-02 2.033106e-03 4.919093e-03 5.062364e-03 4.208159e-02 9.355260e-04 7.845521e+01 -1.500829e+03 -1.203483e-03 3.134695e-05 1.079593e-03 0.000000e+00
3.100000e-01 2.718543e-02 2.108641e-03 4.978976e-03 5.333461e-03 4.210204e-02 9.851713e-04 7.842888e+01 -1.500326e+03 -1.263744e-03 2.983379e-05 1.120921e-03 0.000000e+00
3.200000e-01 2.768566e-02 2.152836e-03 5.008938e-03 5.609937e-03 4.212307e-02 1.035275e-03 7.840257e+01 -1.499822e+03 -1.322337e-03 3.234151e-05 1.149719e-03 0.000000e+00
3.300000e-01 2.811380e-02 2.167187e-03 5.005620e-03 5.891060e-03 4.214439e-02 1.085519e-03 7.837629e+01 -1.499319e+03 -1.378779e-03 3.224622e-05 1.181849e-03 0.000000e+00
3.400000e-01 2.848659e-02 2.163063e-03 4.969898e-03 6.176180e-03 4.216574e-02 1.135573e-03 7.835002e+01 -1.498815e+03 -1.432587e-03 3.607400e-05 1.201337e-03 0.000000e+00
3.500000e-01 2.880117e-02 2.154478e-03 4.901030e-03 6.464716e-03 4.218701e-02 1.185109e-03 7.832378e+01 -1.498312e+03 -1.483262e-03 3.816203e-05 1.216270e-03 0.000000e+00
3.600000e-01 2.904980e-02 2.140627e-03 4.796880e-03 6.756031e-03 4.220817e-02 1.233784e-03 7.829756e+01 -1.497808e+03 -1.530278e-03 4.106079e-05 1.221590e-03 0.000000e+00
3.700000e-01 2.922225e-02 2.111801e-03 4.657335e-03 7.049401e-03 4.222910e-02 1.281244e-03 7.827137e+01 -1.497305e+03 -1.573059e-03 4.072749e-05 1.222474e-03 0.000000e+00
3.800000e-01 2.930989e-02 2.062108e-03 4.483533e-03 7.344005e-03 4.224965e-02 1.327139e-03 7.824521e+01 -1.496801e+03 -1.610996e-03 4.342273e-05 1.217004e-03 0.000000e+00
3.900000e-01 2.932080e-02 1.987362e-03 4.280511e-03 7.639022e-03 4.226956e-02 1.371148e-03 7.821907e+01 -1.496298e+03 -1.643472e-03 4.281661e-05 1.208980e-03 0.000000e+00
4.000000e-01 2.926174e-02 1.881187e-03 4.055499e-03 7.933707e-03 4.228858e-02 1.413013e-03 7.819296e+01 -1.495794e+03 -1.669908e-03 4.506572e-05 1.200855e-03 0.000000e+00
4.100000e-01 2.914974e-02 1.741901e-03 3.815702e-03 8.227438e-03 4.230638e-02 1.452548e-03 7.816688e+01 -1.495291e+03 -1.689783e-03 4.429717e-05 1.193577e-03 0.000000e+00
4.200000e-01 2.901187e-02 1.581186e-03 3.566409e-03 8.519816e-03 4.232268e-02 1.489627e-03 7.814083e+01 -1.494787e+03 -1.702625e-03 4.547481e-05 1.189380e-03 0.000000e+00
4.300000e-01 2.888834e-02 1.408639e-03 3.312830e-03 8.810780e-03 4.233733e-02 1.524179e-03 7.811480e+01 -1.494284e+03 -1.707982e-03 4.482884e-05 1.190143e-03 0.000000e+00
4.400000e-01 2.882494e-02 1.210932e-03 3.057101e-03 9.100702e-03 4.235014e-02 1.556171e-03 7.808881e+01 -1.493780e+03 -1.705415e-03 4.609250e-05 1.199251e-03 0.000000e+00
4.500000e-01 2.885068e-02 9.825624e-04 2.797832e-03 9.390328e-03 4.236083e-02 1.585569e-03 7.806284e+01 -1.493277e+03 -1.694502e-03 4.677719e-05 1.216974e-03 0.000000e+00
4.600000e-01 2.898274e-02 7.337963e-04 2.533289e-03 9.680634e-03 4.236916e-02 1.612326e-03 7.803690e+01 -1.492773e+03 -1.674845e-03 4.920657e-05 1.240449e-03 0.000000e+00
4.700000e-01 2.922672e-02 4.785954e-04 2.263313e-03 9.972708e-03 4.237498e-02 1.636385e-03 7.801099e+01 -1.492270e+03 -1.646079e-03 5.042804e-05 1.279468e-03 0.000000e+00
4.800000e-01 2.957847e-02 2.316868e-04 1.989669e-03 1.026765e-02 4.237831e-02 1.657701e-03 7.798510e+01 -1.491766e+03 -1.607881e-03 5.518645e-05 1.327608e-03 0.000000e+00
4.900000e-01 3.000809e-02 6.252921e-06 1.712279e-03 1.056638e-02 4.237931e-02 1.676236e-03 7.795924e+01 -1.491263e+03 -1.559969e-03 5.991280e-05 1.391666e-03 0.000000e+00
5.000000e-01 3.048549e-02 -1.973713e-04 1.432589e-03 1.086953e-02 4.237818e-02 1.691961e-03 7.793341e+01 -1.490759e+03 -1.502092e-03 6.840391e-05 1.464257e-03 0.000000e+00
5.100000e-01 3.099137e-02 -3.835865e-04 1.152712e-03 1.117748e-02 4.237513e-02 1.704864e-03 7.790760e+01 -1.490256e+03 -1.434011e-03 8.246790e-05 1.557540e-03 0.000000e+00
5.200000e-01 3.151658e-02 -5.754374e-04 8.748418e-04 1.149046e-02 4.237022e-02 1.714953e-03 7.788182e+01 -1.489752e+03 -1.355496e-03 1.048367e-04 1.652154e-03 0.000000e+00
5.300000e-01 3.206267e-02 -7.906971e-04 6.012206e-04 1.180869e-02 4.236330e-02 1.722257e-03 7.785606e+01 -1.489249e+03 -1.266310e-03 1.346786e-04 1.753299e-03 0.000000e+00
5.400000e-01 3.263667e-02 -1.009485e-03 3.340017e-04 1.213240e-02 4.235424e-02 1.726826e-03 7.783032e+01 -1.488745e+03 -1.166195e-03 1.720983e-04 1.851956e-03 0.000000e+00
5.500000e-01 3.326648e-02 -1.217229e-03 7.666046e-05 1.246201e-02 4.234309e-02 1.728741e-03 7.780460e+01 -1.488241e+03 -1.054858e-03 2.159195e-04 1.943038e-03 0.000000e+00
5.600000e-01 3.397934e-02 -1.408035e-03 -1.666748e-04 1.279824e-02 4.232996e-02 1.728122e-03 7.777891e+01 -1.487738e+03 -9.319825e-04 2.640909e-04 2.016931e-03 0.000000e+00
5.700000e-01 3.480228e-02 -1.591362e-03 -3.918922e-04 1.314204e-02 4.231501e-02 1.725130e-03 7.775324e+01 -1.487234e+03 -7.972545e-04 3.199018e-04 2.071236e-03 0.000000e+00
5.800000e-01 3.573497e-02 -1.790754e-03 -5.974468e-04 1.349454e-02 4.229816e-02 1.719952e-03 7.772759e+01 -1.486731e+03 -6.503793e-04 3.820148e-04 2.103021e-03 0.000000e+00
5.900000e-01 3.674758e-02 -2.022043e-03 -7.838975e-04 1.385668e-02 4.227919e-02 1.712778e-03 7.770196e+01 -1.486227e+03 -4.910785e-04 4.522226e-04 2.111766e-03 0.000000e+00
6.000000e-01 3.779532e-02 -2.286495e-03 -9.539344e-04 1.422904e-02 4.225777e-02 1.703778e-03 7.767635e+01 -1.485724e+03 -3.190751e-04 5.305632e-04 2.100383e-03 0.000000e+00
6.100000e-01 3.883373e-02 -2.551027e-03 -1.109945e-03 1.461177e-02 4.223373e-02 1.693100e-03 7.765076e+01 -1.485220e+03 -1.340843e-04 6.174768e-04 2.068830e-03 0.000000e+00
6.200000e-01 3.984807e-02 -2.795395e-03 -1.250556e-03 1.500470e-02 4.220717e-02 1.680892e-03 7.762519e+01 -1.484716e+03 6.418607e-05 7.102976e-04 2.024352e-03 0.000000e+00
6.300000e-01 4.082936e-02 -3.024338e-03 -1.372212e-03 1.540754e-02 4.217828e-02 1.667324e-03 7.759964e+01 -1.484213e+03 2.760272e-04 8.092226e-04 1.979396e-03 0.000000e+00
6.400000e-01 4.176116e-02 -3.247808e-03 -1.472917e-03 1.581991e-02 4.214714e-02 1.652597e-03 7.757410e+01 -1.483709e+03 5.017287e-04 9.179780e-04 1.934365e-03 0.000000e+00
6.500000e-01 4.261496e-02 -3.468506e-03 -1.553482e-03 1.624116e-02 4.211380e-02 1.636914e-03 7.754857e+01 -1.483205e+03 7.415953e-04 1.035632e-03 1.889924e-03 0.000000e+00
6.600000e-01 4.336639e-02 -3.665320e-03 -1.614813e-03 1.667040e-02 4.207839e-02 1.620473e-03 7.752306e+01 -1.482702e+03 9.959555e-04 1.164263e-03 1.842858e-03 0.000000e+00
6.700000e-01 4.399866e-02 -3.822381e-03 -1.656784e-03 1.710654e-02 4.204123e-02 1.603469e-03 7.749757e+01 -1.482198e+03 1.265165e-03 1.281681e-03 1.798135e-03 0.000000e+00
6.800000e-01 4.449438e-02 -3.949002e-03 -1.681717e-03 1.754830e-02 4.200267e-02 1.586090e-03 7.747209e+01 -1.481695e+03 1.549601e-03 1.400033e-03 1.751002e-03 0.000000e+00
6.900000e-01 4.485315e-02 -4.061732e-03 -1.692996e-03 1.799432e-02 4.196292e-02 1.568490e-03 7.744661e+01 -1.481191e+03 1.849649e-03 1.515656e-03 1.701247e-03 0.000000e+00
7.000000e-01 4.505867e-02 -4.152776e-03 -1.696485e-03 1.844315e-02 4.192216e-02 1.550781e-03 7.742116e+01 -1.480687e+03 2.165712e-03 1.617625e-03 1.650094e-03 0.000000e+00
7.100000e-01 4.509394e-02 -4.225424e-03 -1.698975e-03 1.889318e-02 4.188059e-02 1.533007e-03 7.739571e+01 -1.480184e+03 2.498212e-03 1.702454e-03 1.597004e-03 0.000000e+00
7.200000e-01 4.496865e-02 -4.291016e-03 -1.705082e-03 1.934276e-02 4.183834e-02 1.515158e-03 7.737027e+01 -1.479680e+03 2.847591e-03 1.762634e-03 1.543213e-03 0.000000e+00
7.300000e-01 4.471383e-02 -4.352360e-03 -1.714483e-03 1.979043e-02 4.179546e-02 1.497200e-03 7.734485e+01 -1.479176e+03 3.214312e-03 1.795073e-03 1.493403e-03 0.000000e+00
7.400000e-01 4.435727e-02 -4.413911e-03 -1.725908e-03 2.023503e-02 4.175198e-02 1.479105e-03 7.731944e+01 -1.478673e+03 3.598847e-03 1.796064e-03 1.451213e-03 0.000000e+00
7.500000e-01 4.390087e-02 -4.485024e-03 -1.741402e-03 2.067556e-02 4.170785e-02 1.460843e-03 7.729404e+01 -1.478169e+03 4.001661e-03 1.769152e-03 1.419473e-03 0.000000e+00
7.600000e-01 4.334743e-02 -4.569034e-03 -1.762689e-03 2.111103e-02 4.166295e-02 1.442361e-03 7.726865e+01 -1.477665e+03 4.423211e-03 1.702655e-03 1.399604e-03 0.000000e+00
7.700000e-01 4.272119e-02 -4.660369e-03 -1.787416e-03 2.154059e-02 4.161719e-02 1.423610e-03 7.724328e+01 -1.477162e+03 4.863938e-03 1.617669e-03 1.391165e-03 0.000000e+00
7.800000e-01 4.205115e-02 -4.755050e-03 -1.810854e-03 2.196365e-02 4.157051e-02 1.404578e-03 7.721791e+01 -1.476658e+03 5.324269e-03 1.522409e-03 1.389023e-03 0.000000e+00
7.900000e-01 4.135416e-02 -4.862483e-03 -1.830952e-03 2.237986e-02 4.152283e-02 1.385286e-03 7.719256e+01 -1.476154e+03 5.804617e-03 1.427393e-03 1.388157e-03 0.000000e+00
8.000000e-01 4.064285e-02 -4.962418e-03 -1.847803e-03 2.278903e-02 4.147413e-02 1.365766e-03 7.716722e+01 -1.475650e+03 6.305380e-03 1.330683e-03 1.392980e-03 0.000000e+00
8.100000e-01 3.992672e-02 -5.040591e-03 -1.862863e-03 2.319104e-02 4.142456e-02 1.346046e-03 7.714189e+01 -1.475147e+03 6.826940e-03 1.244975e-03 1.398641e-03 0.000000e+00
8.200000e-01 3.922526e-02 -5.112729e-03 -1.876677e-03 2.358597e-02 4.137424e-02 1.326144e-03 7.711657e+01 -1.474643e+03 7.369682e-03 1.167213e-03 1.413149e-03 0.000000e+00
8.300000e-01 3.855852e-02 -5.173035e-03 -1.888643e-03 2.397404e-02 4.132327e-02 1.306078e-03 7.709127e+01 -1.474139e+03 7.933992e-03 1.101074e-03 1.431050e-03 0.000000e+00
8.400000e-01 3.793375e-02 -5.225936e-03 -1.899167e-03 2.435566e-02 4.127174e-02 1.285867e-03 7.706597e+01 -1.473635e+03 8.520252e-03 1.049309e-03 1.453522e-03 0.000000e+00
8.500000e-01 3.735866e-02 -5.278848e-03 -1.907618e-03 2.473127e-02 4.121970e-02 1.265528e-03 7.704069e+01 -1.473132e+03 9.128813e-03 1.019893e-03 1.474961e-03 0.000000e+00
8.600000e-01 3.683452e-02 -5.337455e-03 -1.914952e-03 2.510138e-02 4.116711e-02 1.245077e-03 7.701543e+01 -1.472628e+03 9.759991e-03 1.015864e-03 1.494251e-03 0.000000e+00
8.700000e-01 3.637209e-02 -5.423742e-03 -1.920787e-03 2.546656e-02 4.111380e-02 1.224522e-03 7.699017e+01 -1.472124e+03 1.041407e-02 1.050351e-03 1.509566e-03 0.000000e+00
8.800000e-01 3.596722e-02 -5.544246e-03 -1.925052e-03 2.582740e-02 4.105947e-02 1.203872e-03 7.696493e+01 -1.471620e+03 1.109131e-02 1.121238e-03 1.520230e-03 0.000000e+00
8.900000e-01 3.559619e-02 -5.689224e-03 -1.930676e-03 2.618436e-02 4.100382e-02 1.183118e-03 7.693970e+01 -1.471117e+03 1.179196e-02 1.217091e-03 1.530053e-03 0.000000e+00
9.000000e-01 3.522124e-02 -5.869912e-03 -1.941998e-03 2.653758e-02 4.094655e-02 1.162217e-03 7.691448e+01 -1.470613e+03 1.251623e-02 1.325408e-03 1.542990e-03 0.000000e+00
9.100000e-01 3.480569e-02 -6.080196e-03 -1.961735e-03 2.688685e-02 4.088734e-02 1.141089e-03 7.688927e+01 -1.470109e+03 1.326434e-02 1.451555e-03 1.560216e-03 0.000000e+00
9.200000e-01 3.432942e-02 -6.301388e-03 -1.989417e-03 2.723164e-02 4.082599e-02 1.119644e-03 7.686407e+01 -1.469605e+03 1.403648e-02 1.575070e-03 1.581014e-03 0.000000e+00
9.300000e-01 3.378167e-02 -6.526985e-03 -2.024458e-03 2.757130e-02 4.076242e-02 1.097803e-03 7.683888e+01 -1.469101e+03 1.483285e-02 1.712713e-03 1.604034e-03 0.000000e+00
9.400000e-01 3.317341e-02 -6.752585e-03 -2.065262e-03 2.790517e-02 4.069661e-02 1.075498e-03 7.681370e+01 -1.468598e+03 1.565361e-02 1.854911e-03 1.626803e-03 0.000000e+00
9.500000e-01 3.253034e-02 -6.974967e-03 -2.107812e-03 2.823275e-02 4.062858e-02 1.052692e-03 7.678852e+01 -1.468094e+03 1.649892e-02 1.999862e-03 1.647501e-03 0.000000e+00
9.600000e-01 3.186432e-02 -7.180065e-03 -2.148903e-03 2.855377e-02 4.055843e-02 1.029384e-03 7.676335e+01 -1.467590e+03 1.736889e-02 2.113624e-03 1.663388e-03 0.000000e+00
9.700000e-01 3.118482e-02 -7.356252e-03 -2.183978e-03 2.886805e-02 4.048640e-02 1.005618e-03 7.673818e+01 -1.467086e+03 1.826365e-02 2.216273e-03 1.673801e-03 0.000000e+00
9.800000e-01 3.049121e-02 -7.509489e-03 -2.208004e-03 2.917545e-02 4.041274e-02 9.814868e-04 7.671301e+01 -1.466582e+03 1.918330e-02 2.304122e-03 1.680194e-03 0.000000e+00
9.900000e-01 2.979284e-02 -7.671035e-03 -2.215537e-03 2.947588e-02 4.033751e-02 9.571290e-04 7.668784e+01 -1.466078e+03 2.012793e-02 2.385882e-03 1.680987e-03 0.000000e+00
1.000000e+00 2.911882e-02 -7.856818e-03 -2.199992e-03 2.976944e-02 4.026056e-02 9.327376e-04 7.666267e+01 -1.465575e+03 2.109766e-02 2.460976e-03 1.680570e-03 0.000000e+00
1.010000e+00 2.849427e-02 -8.062161e-03 -2.156987e-03 3.005653e-02 4.018165e-02 9.085584e-04 7.663750e+01 -1.465071e+03 2.209259e-02 2.536324e-03 1.676743e-03 0.000000e+00
1.020000e+00 2.793459e-02 -8.267173e-03 -2.083816e-03 3.033772e-02 4.010068e-02 8.848764e-04 7.661233e+01 -1.464567e+03 2.311288e-02 2.613400e-03 1.673017e-03 0.000000e+00
1.030000e+00 2.743859e-02 -8.452557e-03 -1.979378e-03 3.061366e-02 4.001773e-02 8.620012e-04 7.658715e+01 -1.464063e+03 2.415866e-02 2.694004e-03 1.668280e-03 0.000000e+00
1.040000e+00 2.699947e-02 -8.596262e-03 -1.844206e-03 3.088498e-02 3.993311e-02 8.402516e-04 7.656197e+01 -1.463559e+03 2.523010e-02 2.775267e-03 1.663680e-03 0.000000e+00
1.050000e+00 2.660229e-02 -8.688456e-03 -1.679579e-03 3.115217e-02 3.984727e-02 8.199428e-04 7.653678e+01 -1.463055e+03 2.632739e-02 2.855644e-03 1.654990e-03 0.000000e+00
1.060000e+00 2.622975e-02 -8.740780e-03 -1.487110e-03 3.141559e-02 3.976066e-02 8.013751e-04 7.651157e+01 -1.462551e+03 2.745074e-02 2.936734e-03 1.646829e-03 0.000000e+00
1.070000e+00 2.587932e-02 -8.755542e-03 -1.268859e-03 3.167548e-02 3.967366e-02 7.848289e-04 7.648637e+01 -1.462047e+03 2.860038e-02 3.023100e-03 1.636369e-03 0.000000e+00
1.080000e+00 2.555282e-02 -8.733786e-03 -1.026850e-03 3.193207e-02 3.958662e-02 7.705638e-04 7.646115e+01 -1.461543e+03 2.977656e-02 3.114702e-03 1.626221e-03 0.000000e+00
1.090000e+00 2.523277e-02 -8.680487e-03 -7.659878e-04 3.218553e-02 3.949988e-02 7.588040e-04 7.643592e+01 -1.461040e+03 3.097954e-02 3.208679e-03 1.613061e-03 0.000000e+00
1.100000e+00 2.491572e-02 -8.595393e-03 -4.917497e-04 3.243591e-02 3.941375e-02 7.497213e-04 7.641068e+01 -1.460536e+03 3.220959e-02 3.301031e-03 1.594258e-03 0.000000e+00
1.110000e+00 2.459149e-02 -8.472462e-03 -2.120127e-04 3.268319e-02 3.932857e-02 7.434220e-04 7.638543e+01 -1.460032e+03 3.346698e-02 3.392715e-03 1.565518e-03 0.000000e+00
1.120000e+00 2.423938e-02 -8.326438e-03 6.407889e-05 3.292721e-02 3.924464e-02 7.399260e-04 7.636017e+01 -1.459528e+03 3.475201e-02 3.479773e-03 1.526435e-03 0.000000e+00
1.130000e+00 2.384191e-02 -8.182027e-03 3.287806e-04 3.316758e-02 3.916208e-02 7.391623e-04 7.633490e+01 -1.459024e+03 3.606500e-02 3.561864e-03 1.474266e-03 0.000000e+00
1.140000e+00 2.339477e-02 -8.052663e-03 5.780166e-04 3.340383e-02 3.908080e-02 7.409947e-04 7.630962e+01 -1.458520e+03 3.740624e-02 3.639572e-03 1.412955e-03 0.000000e+00
1.150000e+00 2.290458e-02 -7.934054e-03 8.099101e-04 3.363548e-02 3.900068e-02 7.452556e-04 7.628433e+01 -1.458016e+03 3.877602e-02 3.713582e-03 1.332972e-03 0.000000e+00
